time,tavg,tmin,tmax,prcp,snow,wdir,wspd,wpgt,pres,tsun
2023-01-01,21.0,15.7,26.6,39.9,,149.0,5.5,,1016.0,
2023-01-02,20.6,17.4,24.6,0.0,,21.0,5.5,,1016.1,
2023-01-03,19.9,17.4,23.8,13.1,71.0,16.0,4.6,,1016.2,
2023-01-04,20.3,17.1,24.4,1.5,10.0,309.0,5.3,,1015.9,
2023-01-05,20.9,17.5,25.0,1.4,,5.0,6.1,,1015.5,
2023-01-06,21.2,17.9,26.5,8.6,,350.0,5.8,,1015.8,
2023-01-07,21.2,18.7,25.4,2.0,,350.0,5.0,,1016.3,
2023-01-08,21.4,15.8,25.2,0.0,,291.0,5.5,,1016.3,
2023-01-09,20.7,18.6,25.9,4.6,,326.0,5.9,,1016.4,
2023-01-10,20.1,16.9,24.2,23.9,,103.0,5.6,,1016.3,
2023-01-11,20.0,15.9,25.0,5.1,,347.0,6.7,,1016.4,
2023-01-12,21.4,17.9,25.0,0.0,,334.0,7.0,,1015.7,
2023-01-13,21.7,18.7,26.0,6.2,,18.0,5.6,,1015.0,
2023-01-14,21.4,17.9,27.0,9.1,10.0,309.0,6.9,,1015.5,
2023-01-15,21.7,18.2,26.0,3.0,,336.0,6.6,,1015.8,
2023-01-16,21.4,16.5,26.0,1.8,,303.0,5.8,,1015.0,
2023-01-17,22.0,17.8,26.0,0.0,,7.0,6.4,,1014.0,
2023-01-18,21.6,16.9,26.4,4.5,,346.0,5.9,,1014.6,
2023-01-19,21.7,18.0,26.1,0.3,,11.0,6.1,,1015.4,
2023-01-20,21.5,18.0,25.8,0.0,,113.0,6.6,,1015.3,
2023-01-21,21.8,17.9,26.0,0.0,,87.0,6.4,,1014.0,
2023-01-22,21.1,18.1,26.8,1.7,,3.0,6.7,,1013.5,
2023-01-23,22.1,18.3,26.0,0.0,,102.0,8.4,,1014.4,
2023-01-24,21.9,15.0,27.0,0.0,,131.0,9.3,,1014.1,
2023-01-25,22.3,15.6,27.0,0.1,,79.0,8.5,,1013.6,
2023-01-26,22.1,17.0,27.6,0.0,,137.0,9.1,,1013.2,
2023-01-27,22.1,17.2,27.1,0.0,,147.0,9.7,,1013.1,
2023-01-28,21.9,17.6,27.2,0.0,,126.0,9.3,,1013.0,
2023-01-29,22.4,17.8,27.1,0.0,,288.0,9.2,,1012.6,
2023-01-30,22.6,17.5,27.6,0.0,,245.0,9.5,,1013.3,
2023-01-31,22.0,18.7,26.9,0.0,,349.0,6.9,,1013.9,
2023-02-01,22.3,17.8,26.9,0.0,,35.0,8.1,,1014.3,
2023-02-02,22.1,16.4,27.0,0.0,,35.0,9.5,,1014.3,
2023-02-03,22.6,18.3,27.4,0.0,,277.0,8.6,,1012.2,
2023-02-04,21.8,17.5,26.1,0.0,,342.0,5.8,,1015.9,
2023-02-05,22.3,18.4,27.0,0.3,,316.0,8.0,,1014.9,
2023-02-06,22.5,15.9,27.2,0.2,,74.0,8.4,,1014.0,
2023-02-07,23.4,17.0,28.0,0.0,,128.0,8.1,,1013.3,
2023-02-08,23.1,18.6,28.4,4.4,,190.0,11.2,,1012.3,
2023-02-09,22.3,16.0,29.0,4.5,,309.0,8.0,,1013.6,
2023-02-10,23.2,16.7,28.2,3.8,,228.0,10.0,,1012.6,
2023-02-11,22.9,19.3,28.7,2.6,,287.0,7.9,,1012.3,
2023-02-12,22.9,18.8,27.8,2.8,,307.0,7.2,,1011.7,
2023-02-13,21.8,17.1,26.9,1.2,20.0,338.0,5.7,,1012.5,
2023-02-14,22.4,19.0,27.1,2.5,10.0,350.0,4.9,,1013.7,
2023-02-15,22.3,19.0,28.0,24.0,30.0,19.0,5.5,,1013.8,
2023-02-16,21.8,19.3,26.4,9.7,,115.0,5.2,,1013.6,
2023-02-17,22.4,16.7,27.0,2.0,,328.0,5.8,,1011.8,
2023-02-18,22.1,16.8,27.1,0.0,,344.0,5.2,,1013.6,
2023-02-19,22.7,18.4,27.2,0.0,,51.0,7.6,,1012.9,
2023-02-20,22.7,19.3,27.6,1.2,,289.0,7.5,,1013.5,
2023-02-21,22.4,19.2,27.8,7.5,,147.0,10.2,,1014.2,
2023-02-22,20.0,17.8,26.0,1.0,,154.0,6.9,,1016.5,
2023-02-23,21.8,17.2,26.1,0.0,,264.0,6.9,,1016.3,
2023-02-24,22.6,16.7,27.6,0.7,,44.0,6.5,,1015.4,
2023-02-25,23.2,19.3,27.3,0.1,,20.0,7.3,,1014.8,
2023-02-26,23.2,18.1,28.0,0.0,,267.0,7.5,,1014.2,
2023-02-27,23.6,18.5,28.4,0.4,,168.0,9.2,,1014.5,
2023-02-28,24.0,19.0,28.6,1.4,,275.0,10.4,,1014.5,
2023-03-01,23.3,17.8,27.1,3.2,,300.0,7.9,,1014.6,
2023-03-02,23.6,19.1,28.6,1.4,,124.0,6.1,,1012.0,
2023-03-03,24.7,20.4,29.0,0.0,,282.0,7.4,,1010.8,
2023-03-04,22.6,19.9,29.7,0.8,,166.0,6.7,,1012.9,
2023-03-05,22.9,19.8,26.0,2.0,,338.0,5.6,,1013.8,
2023-03-06,23.0,19.5,28.0,0.0,,4.0,6.4,,1013.9,
2023-03-07,21.7,17.9,27.4,4.6,20.0,21.0,5.3,,1014.1,
2023-03-08,21.2,18.6,25.1,0.0,,323.0,5.8,,1014.8,
2023-03-09,18.8,16.7,23.0,11.9,,28.0,6.4,,1016.3,
2023-03-10,20.9,15.6,25.7,0.0,20.0,78.0,6.6,,1015.6,
2023-03-11,18.9,17.6,26.6,23.1,20.0,51.0,5.0,,1016.5,
2023-03-12,19.1,16.8,26.6,19.8,41.0,125.0,5.6,,1016.7,
2023-03-13,20.0,17.3,22.0,7.9,,6.0,5.2,,1017.4,
2023-03-14,21.3,18.2,25.0,0.0,10.0,134.0,6.8,,1016.5,
2023-03-15,21.0,16.0,25.4,8.0,,311.0,6.1,,1015.0,
2023-03-16,20.9,15.9,25.4,12.1,10.0,321.0,5.9,,1014.9,
2023-03-17,20.4,17.8,25.2,9.9,,317.0,4.9,,1015.6,
2023-03-18,22.1,15.8,25.3,0.0,,337.0,6.7,,1015.6,
2023-03-19,21.9,17.2,26.0,17.3,10.0,332.0,6.2,,1016.1,
2023-03-20,22.8,18.0,27.5,0.0,,358.0,5.9,,1015.7,
2023-03-21,21.9,17.9,27.7,1.0,,316.0,6.5,,1014.8,
2023-03-22,22.3,18.4,26.8,0.0,,340.0,6.9,,1014.0,
2023-03-23,22.4,19.0,27.0,11.4,,201.0,7.5,,1014.6,
2023-03-24,22.2,17.8,26.0,3.3,,31.0,6.3,,1014.5,
2023-03-25,22.5,18.6,27.0,2.3,,335.0,5.6,,1014.6,
2023-03-26,22.4,19.0,26.7,4.6,,351.0,5.4,,1014.3,
2023-03-27,22.4,19.1,27.0,12.2,,160.0,8.7,,1014.2,
2023-03-28,21.9,15.9,26.8,8.9,,214.0,7.3,,1013.6,
2023-03-29,21.7,17.3,31.0,3.6,,351.0,5.3,,1013.5,
2023-03-30,22.2,18.6,26.0,0.3,,0.0,6.6,,1013.9,
2023-03-31,23.1,19.6,27.0,0.0,,13.0,7.1,,1014.2,
2023-04-01,22.2,19.0,27.5,9.0,,297.0,7.1,,1014.5,
2023-04-02,22.4,16.8,27.0,3.8,,221.0,6.9,,1014.0,
2023-04-03,23.4,19.5,28.0,2.7,,193.0,8.3,,1012.7,
2023-04-04,23.2,19.9,28.4,3.6,,263.0,7.7,,1011.9,
2023-04-05,22.7,19.8,28.1,2.4,,349.0,6.8,,1012.2,
2023-04-06,22.3,19.4,28.2,4.2,,310.0,5.4,,1012.6,
2023-04-07,20.6,16.0,26.3,2.9,41.0,317.0,6.5,,1014.2,
2023-04-08,21.4,16.2,26.0,4.0,,156.0,6.2,,1015.1,
2023-04-09,22.7,18.9,27.0,4.7,,115.0,6.6,,1014.6,
2023-04-10,22.3,16.8,27.4,2.4,,352.0,6.6,,1014.8,
2023-04-11,22.1,19.6,27.0,22.4,,123.0,7.1,,1014.3,
2023-04-12,22.2,18.8,27.0,9.3,,176.0,10.6,,1013.6,
2023-04-13,22.3,16.9,27.7,4.7,,273.0,4.9,,1012.4,
2023-04-14,23.5,18.9,28.0,2.6,,57.0,6.2,,1012.6,
2023-04-15,23.9,16.9,28.0,3.3,,269.0,7.1,,1013.1,
2023-04-16,22.1,18.2,28.1,13.9,51.0,315.0,6.3,,1015.2,
2023-04-17,20.7,17.8,26.1,30.0,,295.0,6.2,,1015.2,
2023-04-18,22.0,17.8,26.1,0.0,,306.0,5.6,,1014.3,
2023-04-19,22.4,18.7,26.5,2.4,,313.0,5.9,,1013.4,
2023-04-20,22.1,17.3,27.0,7.5,,355.0,5.7,,1014.4,
2023-04-21,21.1,18.6,25.5,15.3,,328.0,5.4,,1014.7,
2023-04-22,20.2,16.3,24.9,20.2,,103.0,4.9,,1014.7,
2023-04-23,21.9,18.3,26.0,9.3,10.0,311.0,7.4,,1014.7,
2023-04-24,21.3,18.4,26.8,14.2,,332.0,5.8,,1015.5,
2023-04-25,22.8,18.8,27.0,4.6,,12.0,5.0,,1015.2,
2023-04-26,22.2,17.9,27.4,5.0,20.0,104.0,5.3,,1015.3,
2023-04-27,22.1,18.1,26.9,7.4,,49.0,5.6,,1014.9,
2023-04-28,22.3,18.1,26.7,10.5,,40.0,6.9,,1014.7,
2023-04-29,22.7,16.9,26.0,1.0,,160.0,6.6,,1015.3,
2023-04-30,22.3,19.0,27.0,4.1,,68.0,5.9,,1016.2,
2023-05-01,22.6,18.6,26.5,0.0,,248.0,6.6,,1015.0,
2023-05-02,23.3,19.1,27.7,0.0,,133.0,7.8,,1013.2,
2023-05-03,24.4,16.3,29.0,0.0,,54.0,8.4,,1012.1,
2023-05-04,25.0,17.1,29.1,0.6,,89.0,8.9,,1012.5,
2023-05-05,24.9,20.9,29.6,1.5,,193.0,8.0,,1012.5,
2023-05-06,24.6,20.7,29.3,1.3,,151.0,6.8,,1013.4,
2023-05-07,23.7,20.2,29.0,0.5,,313.0,8.3,,1013.7,
2023-05-08,23.7,18.1,27.7,3.2,,228.0,7.9,,1013.4,
2023-05-09,24.5,17.8,28.0,0.0,,127.0,7.8,,1013.9,
2023-05-10,23.1,18.3,28.1,4.1,,205.0,9.6,,1015.3,
2023-05-11,23.4,19.3,28.0,0.0,,284.0,6.5,,1015.1,
2023-05-12,22.9,18.0,28.5,0.4,,117.0,7.0,,1014.1,
2023-05-13,24.1,19.4,29.0,1.8,,131.0,9.6,,1013.6,
2023-05-14,22.9,19.6,30.0,21.1,,134.0,7.2,,1015.4,
2023-05-15,22.2,18.1,26.0,0.0,,152.0,7.1,,1017.1,
2023-05-16,22.3,19.5,26.3,10.8,,321.0,7.9,,1016.7,
2023-05-17,22.9,17.8,28.0,2.7,,168.0,7.9,,1015.9,
2023-05-18,23.5,18.9,28.9,3.6,,14.0,7.4,,1014.2,
2023-05-19,24.1,17.9,28.7,10.1,,302.0,8.8,,1013.1,
2023-05-20,23.2,20.6,29.4,5.0,,302.0,7.1,,1013.3,
2023-05-21,22.1,20.0,26.1,0.0,,292.0,6.0,,1014.1,
2023-05-22,20.9,18.8,24.6,10.5,,185.0,7.5,,1014.8,
2023-05-23,21.7,17.8,27.0,6.3,,246.0,6.8,,1015.2,
2023-05-24,22.5,17.0,26.0,3.6,,263.0,7.4,,1013.3,
2023-05-25,22.1,17.2,26.6,0.0,,345.0,4.8,,1013.1,
2023-05-26,21.8,18.3,26.2,5.9,,164.0,9.0,,1015.2,
2023-05-27,22.8,19.0,27.6,15.0,,139.0,9.3,,1015.9,
2023-05-28,21.3,17.6,27.5,7.1,,127.0,7.7,,1015.9,
2023-05-29,22.6,16.8,27.9,3.0,,256.0,8.2,,1014.8,
2023-05-30,22.4,18.6,27.7,0.0,,189.0,8.4,,1015.5,
2023-05-31,23.4,19.2,28.2,0.5,,340.0,6.1,,1015.1,
2023-06-01,21.7,18.1,28.1,0.0,,322.0,5.6,,1015.8,
2023-06-02,21.8,18.6,26.0,0.0,,145.0,7.5,,1014.7,
2023-06-03,23.7,19.2,29.0,0.0,,244.0,8.9,,1012.9,
2023-06-04,22.4,18.8,29.3,2.3,,349.0,6.7,,1014.8,
2023-06-05,22.0,18.4,27.1,4.8,,280.0,7.9,,1016.0,
2023-06-06,22.3,19.0,26.0,8.5,,71.0,6.9,,1015.6,
2023-06-07,22.5,18.7,26.8,5.5,,75.0,6.6,,1015.2,
2023-06-08,21.8,19.6,28.2,1.6,,253.0,6.3,,1016.5,
2023-06-09,21.6,18.6,27.5,9.2,,110.0,8.8,,1016.5,
2023-06-10,22.1,19.4,27.6,11.9,,56.0,5.9,,1016.6,
2023-06-11,22.1,19.0,26.7,3.0,,201.0,7.5,,1016.2,
2023-06-12,22.8,18.4,28.0,0.2,,126.0,8.1,,1014.6,
2023-06-13,24.6,19.6,29.0,0.9,,204.0,10.8,,1013.7,
2023-06-14,23.7,18.8,29.2,1.6,,276.0,8.1,,1013.7,
2023-06-15,22.5,17.7,28.2,6.0,,33.0,8.8,,1014.1,
2023-06-16,22.9,19.2,28.1,8.1,,145.0,6.5,,1014.9,
2023-06-17,21.9,16.8,27.9,1.2,,70.0,8.2,,1015.3,
2023-06-18,22.6,18.8,26.6,0.1,,133.0,7.2,,1015.1,
2023-06-19,24.2,19.5,28.0,0.0,,28.0,7.4,,1014.0,
2023-06-20,24.8,20.8,29.0,1.4,,68.0,9.5,,1013.2,
2023-06-21,24.6,21.0,29.4,0.4,,356.0,10.7,,1013.3,
2023-06-22,23.9,21.3,29.2,0.0,,132.0,6.6,,1014.2,
2023-06-23,21.9,17.9,27.8,10.6,,273.0,7.3,,1015.2,
2023-06-24,21.9,18.4,26.7,16.2,,262.0,8.8,,1015.1,
2023-06-25,22.4,18.0,26.9,1.0,,10.0,6.2,,1015.1,
2023-06-26,21.3,18.3,27.5,0.0,,237.0,6.1,,1016.1,
2023-06-27,22.6,19.0,27.0,1.7,,309.0,7.2,,1015.2,
2023-06-28,22.9,19.0,27.9,2.3,,56.0,6.7,,1014.6,
2023-06-29,24.1,19.9,29.0,12.2,,142.0,8.3,,1013.5,
2023-06-30,23.9,19.2,29.0,2.3,,212.0,10.3,,1014.1,
2023-07-01,23.7,20.6,28.8,1.4,,343.0,9.8,,1014.1,
2023-07-02,22.2,18.3,28.0,7.9,,299.0,8.8,,1015.2,
2023-07-03,22.1,17.5,28.0,0.0,,60.0,7.3,,1015.6,
2023-07-04,22.4,19.5,26.1,8.7,,44.0,6.7,,1016.1,
2023-07-05,22.7,17.5,28.0,1.9,,127.0,8.1,,1015.3,
2023-07-06,22.9,19.4,27.9,9.3,,275.0,9.1,,1014.4,
2023-07-07,22.8,19.6,27.3,5.6,,337.0,6.6,,1014.7,
2023-07-08,21.4,18.2,26.7,0.0,,91.0,6.2,,1015.7,
2023-07-09,22.7,19.0,27.0,0.5,,329.0,6.8,,1015.5,
2023-07-10,22.7,19.6,28.1,0.0,,244.0,9.5,,1014.1,
2023-07-11,22.4,19.5,27.9,7.1,,137.0,8.6,,1015.0,
2023-07-12,22.8,19.0,28.3,0.0,,111.0,8.6,,1014.1,
2023-07-13,24.5,17.3,28.2,0.0,,271.0,8.2,,1012.4,
2023-07-14,22.2,19.8,28.7,2.5,,162.0,7.4,,1013.4,
2023-07-15,23.2,19.0,28.5,1.4,,139.0,8.1,,1013.9,
2023-07-16,22.8,18.9,26.0,2.7,,314.0,7.6,,1014.0,
2023-07-17,23.6,19.3,28.2,3.0,,36.0,8.5,,1014.5,
2023-07-18,23.8,19.8,29.5,1.0,,345.0,7.3,,1015.7,
2023-07-19,23.3,18.1,28.2,0.0,,134.0,10.0,,1015.9,
2023-07-20,25.4,20.7,31.6,0.0,,48.0,9.1,,1014.2,
2023-07-21,24.8,21.8,29.9,1.9,,289.0,9.4,,1013.7,
2023-07-22,23.9,20.0,29.5,1.5,,7.0,8.4,,1014.7,
2023-07-23,24.1,19.9,27.7,0.5,,78.0,9.4,,1015.9,
2023-07-24,24.5,20.4,29.0,0.8,,301.0,10.3,,1015.6,
2023-07-25,23.5,18.0,29.0,0.0,,148.0,10.8,,1014.6,
2023-07-26,22.9,19.0,28.5,8.1,,338.0,8.7,,1014.7,
2023-07-27,22.7,18.7,27.8,11.8,,146.0,15.5,,1014.7,
2023-07-28,23.0,19.8,28.0,0.0,,162.0,9.3,,1015.3,
2023-07-29,23.7,19.9,29.0,5.1,,228.0,8.6,,1015.3,
2023-07-30,24.5,20.2,29.9,0.0,,4.0,8.7,,1014.1,
2023-07-31,22.4,18.0,30.1,20.1,,103.0,10.8,,1015.8,
2023-08-01,23.2,18.6,28.0,0.0,,162.0,7.7,,1016.8,
2023-08-02,23.7,19.9,28.3,1.0,,142.0,9.1,,1017.1,
2023-08-03,22.8,18.3,28.6,0.2,,108.0,8.0,,1016.2,
2023-08-04,23.7,20.0,28.0,0.7,,147.0,8.5,,1015.2,
2023-08-05,24.1,20.0,30.0,1.1,,135.0,8.2,,1014.8,
2023-08-06,24.9,20.8,29.9,2.1,,221.0,8.4,,1015.0,
2023-08-07,23.1,18.2,29.8,2.1,,283.0,6.7,,1016.4,
2023-08-08,24.0,19.7,28.0,0.7,,163.0,7.4,,1016.3,
2023-08-09,23.8,19.9,28.2,3.0,,359.0,7.8,,1015.9,
2023-08-10,22.9,18.7,29.4,0.0,,151.0,7.9,,1015.7,
2023-08-11,23.8,17.8,29.0,0.0,,50.0,7.3,,1013.8,
2023-08-12,24.0,19.2,29.0,4.1,,30.0,7.2,,1014.6,
2023-08-13,23.9,19.0,29.1,2.6,,66.0,7.5,,1013.3,
2023-08-14,23.1,19.3,28.8,0.5,,125.0,7.4,,1014.1,
2023-08-15,22.8,18.4,28.3,0.0,,7.0,7.2,,1014.3,
2023-08-16,22.8,17.3,28.2,5.9,,225.0,6.6,,1014.2,
2023-08-17,23.7,19.2,30.0,7.4,,148.0,7.8,,1014.4,
2023-08-18,22.6,18.5,29.9,21.1,,267.0,6.7,,1013.6,
2023-08-19,23.8,18.9,28.0,0.0,,74.0,6.9,,1011.9,
2023-08-20,22.6,19.8,28.5,14.7,,338.0,6.3,,1012.2,
2023-08-21,23.2,19.6,28.0,11.7,,317.0,7.5,,1011.7,
2023-08-22,21.3,17.0,27.9,88.9,,205.0,9.9,,1012.5,
2023-08-23,22.6,17.0,28.1,0.0,,95.0,6.8,,1014.1,
2023-08-24,23.2,19.0,28.2,2.0,,280.0,7.7,,1015.4,
2023-08-25,22.5,19.0,28.3,0.0,,30.0,8.9,,1015.5,
2023-08-26,23.9,17.1,29.2,0.0,,153.0,10.4,,1014.0,
2023-08-27,24.3,18.3,29.6,0.0,,82.0,9.1,,1014.0,
2023-08-28,24.3,19.1,30.4,1.6,,111.0,11.1,,1015.2,
2023-08-29,24.0,19.6,30.1,2.4,,147.0,8.2,,1016.0,
2023-08-30,24.6,17.6,30.0,0.0,,156.0,9.6,,1013.8,
2023-08-31,25.5,18.7,30.8,2.2,,24.0,9.6,,1013.8,
2023-09-01,24.9,19.4,30.6,1.5,,280.0,8.8,,1014.1,
2023-09-02,23.2,19.9,30.5,5.3,,95.0,9.0,,1014.1,
2023-09-03,23.6,18.9,28.8,3.7,,239.0,8.9,,1014.5,
2023-09-04,22.6,19.1,28.8,3.2,,319.0,8.1,,1015.7,
2023-09-05,23.9,19.5,29.0,1.8,,143.0,8.8,,1015.0,
2023-09-06,24.8,17.1,29.2,4.2,,16.0,8.6,,1014.3,
2023-09-07,24.4,18.9,30.0,2.2,,173.0,8.1,,1013.9,
2023-09-08,24.2,19.5,29.1,2.1,,303.0,6.8,,1013.5,
2023-09-09,24.3,17.7,30.0,20.6,,21.0,7.5,,1013.8,
2023-09-10,22.2,18.2,29.8,6.9,,66.0,6.6,,1015.4,
2023-09-11,23.0,18.4,27.6,5.0,,210.0,8.9,,1015.1,
2023-09-12,23.0,17.2,29.0,9.2,,160.0,9.8,,1013.8,
2023-09-13,24.1,17.5,29.5,1.5,,275.0,8.6,,1014.1,
2023-09-14,24.0,17.4,28.7,6.8,,109.0,9.1,,1013.9,
2023-09-15,23.3,19.0,30.2,2.4,,279.0,10.2,,1014.1,
2023-09-16,23.4,17.6,28.5,3.8,,327.0,8.6,,1014.3,
2023-09-17,23.6,18.7,29.2,0.6,,313.0,7.3,,1014.6,
2023-09-18,23.8,19.9,28.2,2.4,,12.0,8.6,,1014.0,
2023-09-19,21.8,19.7,27.9,2.0,,29.0,8.4,,1013.5,
2023-09-20,24.4,19.8,29.0,0.9,,270.0,9.2,,1013.9,
2023-09-21,24.7,17.2,30.0,1.6,,188.0,9.0,,1013.6,
2023-09-22,24.9,20.5,29.0,5.0,,118.0,10.2,,1012.0,
2023-09-23,24.8,19.7,30.2,1.8,,327.0,8.4,,1012.3,
2023-09-24,23.6,17.4,29.9,1.9,,30.0,6.8,,1013.5,
2023-09-25,25.1,20.3,30.0,6.1,,291.0,9.7,,1013.9,
2023-09-26,24.1,19.3,30.4,10.3,,323.0,6.8,,1015.6,
2023-09-27,23.4,19.9,29.1,9.0,,7.0,6.9,,1014.1,
2023-09-28,23.3,17.9,28.7,1.7,,347.0,6.5,,1013.1,
2023-09-29,23.4,18.9,29.1,2.0,,146.0,8.7,,1012.8,
2023-09-30,24.7,19.5,29.0,0.0,,281.0,8.7,,1013.4,
2023-10-01,24.4,20.7,27.0,0.0,,305.0,9.4,,1013.7,
2023-10-02,24.6,20.5,29.0,13.8,,315.0,9.1,,1012.9,
2023-10-03,23.3,19.9,30.0,10.1,,264.0,8.3,,1012.8,
2023-10-04,22.3,18.0,28.3,20.1,,315.0,8.1,,1014.6,
2023-10-05,22.9,18.3,26.2,0.0,,285.0,9.6,,1015.8,
2023-10-06,22.9,17.5,27.6,3.8,,351.0,9.4,,1016.2,
2023-10-07,23.9,19.1,28.2,13.6,,174.0,8.4,,1014.3,
2023-10-08,22.7,19.9,29.3,6.3,,309.0,7.1,,1015.1,
2023-10-09,22.9,17.6,29.0,0.7,,275.0,10.1,,1013.7,
2023-10-10,21.5,17.8,27.5,6.6,,290.0,7.1,,1013.9,
2023-10-11,23.4,19.0,29.3,2.4,,164.0,10.1,,1013.5,
2023-10-12,23.8,19.8,28.8,9.6,,54.0,8.8,,1012.8,
2023-10-13,24.9,19.2,30.0,10.0,,95.0,12.4,,1013.6,
2023-10-14,21.9,18.1,27.0,4.4,,305.0,6.8,,1015.3,
2023-10-15,22.1,17.6,28.0,1.8,,138.0,7.5,,1015.0,
2023-10-16,22.4,19.0,28.6,0.5,,7.0,7.5,,1015.6,
2023-10-17,21.8,16.4,28.0,6.6,,62.0,7.0,,1014.2,
2023-10-18,22.7,16.7,29.5,0.2,,301.0,6.8,,1012.7,
2023-10-19,22.8,17.5,30.0,0.3,,248.0,8.8,,1012.7,
2023-10-20,21.9,18.6,31.1,2.9,10.0,115.0,5.8,,1014.1,
2023-10-21,21.2,16.6,26.1,4.7,,15.0,5.3,,1015.5,
2023-10-22,21.6,17.2,27.0,3.6,,210.0,5.6,,1015.4,
2023-10-23,22.0,17.5,29.0,0.3,,297.0,8.1,,1013.9,
2023-10-24,22.8,19.6,29.2,0.0,,311.0,5.6,,1014.5,
2023-10-25,21.7,18.4,26.1,14.0,41.0,272.0,6.7,,1014.2,
2023-10-26,21.1,17.1,26.7,12.3,,347.0,6.4,,1013.3,
2023-10-27,21.5,17.4,27.4,7.7,20.0,324.0,7.1,,1014.1,
2023-10-28,21.6,18.4,26.5,1.1,,59.0,6.3,,1014.1,
2023-10-29,21.1,16.6,27.2,4.5,,229.0,9.0,,1014.1,
2023-10-30,22.9,18.2,27.4,11.0,,308.0,7.2,,1014.3,
2023-10-31,21.5,17.4,27.3,22.8,10.0,237.0,7.0,,1014.4,
2023-11-01,20.9,18.7,26.3,1.0,,343.0,6.5,,1014.4,
2023-11-02,21.1,16.3,26.0,7.0,,241.0,8.2,,1013.1,
2023-11-03,21.6,18.2,26.5,10.4,,73.0,6.2,,1013.4,
2023-11-04,21.2,16.9,26.0,5.7,,43.0,6.5,,1013.1,
2023-11-05,22.3,18.9,26.6,2.7,,294.0,7.3,,1013.2,
2023-11-06,21.6,19.1,27.6,4.8,,338.0,7.7,,1014.3,
2023-11-07,21.6,17.5,28.9,1.6,,193.0,8.2,,1014.5,
2023-11-08,22.2,17.2,28.0,0.9,,281.0,6.9,,1013.7,
2023-11-09,22.9,17.3,29.0,5.9,,112.0,8.3,,1012.0,
2023-11-10,22.4,18.0,31.0,7.0,,335.0,9.2,,1011.4,
2023-11-11,22.6,19.5,28.6,3.4,,48.0,7.6,,1011.8,
2023-11-12,22.6,17.7,29.2,16.0,,158.0,12.8,,1011.7,
2023-11-13,23.6,19.8,30.3,2.9,,208.0,8.3,,1011.5,
2023-11-14,24.2,20.6,28.5,9.1,,310.0,7.2,,1011.9,
2023-11-15,22.3,20.0,29.3,3.0,,270.0,6.9,,1013.2,
2023-11-16,22.6,17.7,28.7,1.3,,248.0,8.9,,1011.9,
2023-11-17,23.8,19.6,29.6,0.0,,270.0,8.1,,1013.1,
2023-11-18,21.5,17.0,29.0,16.7,51.0,339.0,8.1,,1015.7,
2023-11-19,21.6,17.4,27.0,10.8,,299.0,6.4,,1016.8,
2023-11-20,22.1,18.5,26.1,21.7,,353.0,7.3,,1015.8,
2023-11-21,21.8,18.6,26.7,2.7,10.0,324.0,6.6,,1014.7,
2023-11-22,22.3,19.4,26.8,4.1,10.0,321.0,7.0,,1014.5,
2023-11-23,22.4,18.7,27.0,1.8,,332.0,8.0,,1014.7,
2023-11-24,22.3,19.6,27.4,1.8,,106.0,7.3,,1014.6,
2023-11-25,21.2,16.2,27.0,1.5,,238.0,7.5,,1015.4,
2023-11-26,22.2,16.9,27.5,0.0,,137.0,7.5,,1014.0,
2023-11-27,22.2,16.4,28.0,0.0,,161.0,8.8,,1013.2,
2023-11-28,22.7,16.8,29.0,0.2,,51.0,9.2,,1013.2,
2023-11-29,23.5,20.5,29.6,0.0,,144.0,7.7,,1013.5,
2023-11-30,22.2,16.9,27.7,0.2,,99.0,7.1,,1013.9,
2023-12-01,23.4,19.3,28.8,0.0,,88.0,8.5,,1013.6,
2023-12-02,23.4,19.5,28.2,0.0,,91.0,8.9,,1013.5,
2023-12-03,23.7,19.8,29.3,0.0,,290.0,8.0,,1013.0,
2023-12-04,23.7,19.7,29.1,0.1,,357.0,10.0,,1012.3,
2023-12-05,24.2,19.8,29.3,0.0,,157.0,10.4,,1012.9,
2023-12-06,23.4,19.5,29.3,1.7,,202.0,8.6,,1012.8,
2023-12-07,22.9,19.6,28.3,0.0,,347.0,6.1,,1013.7,
2023-12-08,22.7,17.7,28.0,0.3,,152.0,8.5,,1013.1,
2023-12-09,23.4,18.2,29.0,0.9,,225.0,9.7,,1012.9,
2023-12-10,23.7,20.6,29.8,1.2,,195.0,7.8,,1011.6,
2023-12-11,23.1,17.7,30.0,4.2,,314.0,8.9,,1011.3,
2023-12-12,24.6,20.5,30.4,0.3,,308.0,8.9,,1011.3,
2023-12-13,24.8,20.6,29.6,2.9,,286.0,8.5,,1011.0,
2023-12-14,24.5,18.5,29.9,3.3,,272.0,9.6,,1010.7,
2023-12-15,21.6,19.7,28.9,1.0,,151.0,5.9,,1011.8,
2023-12-16,21.8,17.8,28.4,6.0,,305.0,8.1,,1013.4,
2023-12-17,21.4,18.2,28.8,8.8,20.0,229.0,5.7,,1014.5,
2023-12-18,22.3,19.4,26.4,10.5,,354.0,7.8,,1013.7,
2023-12-19,21.6,19.3,26.1,23.7,,352.0,5.3,,1013.6,
2023-12-20,22.3,19.3,25.9,3.8,,353.0,6.4,,1013.4,
2023-12-21,22.0,17.6,28.5,0.8,,134.0,7.5,,1013.3,
2023-12-22,23.3,19.4,28.8,0.0,,336.0,8.4,,1012.8,
2023-12-23,23.8,19.6,28.4,0.0,,134.0,7.3,,1013.9,
2023-12-24,22.5,17.7,29.0,3.7,,297.0,8.4,,1014.1,
2023-12-25,23.8,20.4,29.2,0.0,,331.0,6.0,,1015.1,
2023-12-26,22.4,20.0,27.8,52.3,,148.0,5.8,,1015.5,
2023-12-27,22.4,18.1,26.4,0.0,,134.0,5.9,,1015.5,
2023-12-28,21.3,17.8,27.4,24.9,,27.0,5.6,,1015.8,
2023-12-29,22.2,19.6,28.6,0.0,,320.0,5.6,,1017.0,
2023-12-30,21.8,19.0,26.5,4.4,,324.0,5.7,,1018.0,
2023-12-31,23.0,19.0,27.9,2.8,,336.0,6.5,,1016.9,
